1uM,,250nM,,500nM,,750nM,,100nM,
Wavelength (nm),Abs,Wavelength (nm),Abs,Wavelength (nm),Abs,Wavelength (nm),Abs,Wavelength (nm),Abs
800,0.0129876334685697,800,-0.0162361506064464,800,0.0101133328186358,800,-0.0124296315839545,800,0.0163292549387079
799,0.0135357108939409,799,-0.0158178209266827,799,0.0101245936980696,799,-0.0130430955133098,799,0.0162640811713628
798,0.0134309045954186,798,-0.0156180940819906,798,0.0102255042085245,798,-0.0124528244333758,798,0.0161388137520284
797,0.0130428475690233,797,-0.0159534829249215,797,0.0103719827602661,797,-0.0127109310717871,797,0.0161356435740025
796,0.0129135722424986,796,-0.0157338969093338,796,0.00968023581897643,796,-0.013029932382766,796,0.0158833125374451
795,0.0131449721419384,795,-0.0160520833000506,795,0.0100877120938215,795,-0.0130271188374631,795,0.0161955316100381
794,0.0131037779406998,794,-0.0158836108083119,794,0.0102676720317873,794,-0.0128032328366621,794,0.0164276388188717
793,0.0131494546482576,793,-0.0160460960614279,793,0.00989895487774144,793,-0.013127139226875,793,0.0161248167845376
792,0.0134910616535672,792,-0.015280046897602,792,0.010440414663401,792,-0.0122940216975586,792,0.0161498558239617
791,0.0127238763004551,791,-0.0162256773245807,791,0.00989413504077431,791,-0.0128967211613762,791,0.0160083182657106
790,0.0136034145218903,790,-0.014930881677973,790,0.0102857224897306,790,-0.0123706125222461,790,0.0162787544943028
789,0.0132091457643511,789,-0.0156357236717958,789,0.0103488122154592,789,-0.0124823042286122,789,0.0160525018279667
788,0.0128618942159093,788,-0.0156035104243588,788,0.0102829923429444,788,-0.012810471361201,788,0.0157669056179156
787,0.0131256818837861,787,-0.015637371727183,787,0.0102403459672575,787,-0.0128225353006685,787,0.0160200016276856
786,0.0131932148784638,786,-0.0155797859623753,786,0.0104620520999562,786,-0.0124909063173061,786,0.0158786674755159
785,0.0129907274064164,785,-0.0160726887487767,785,0.00971252972883581,785,-0.0129946110189358,785,0.0154743079524206
784,0.0128827993436085,784,-0.0155815840722529,784,0.0102090198496026,784,-0.0122606033341254,784,0.0162787276196318
783,0.0135520282389096,783,-0.015327127469148,783,0.010891072394857,783,-0.0121525296670578,783,0.0164380430075938
782,0.0129804854895542,782,-0.0157400881702061,782,0.00984924956737059,782,-0.0128075055914305,782,0.0158652695694219
781,0.0132901434770115,781,-0.0151693724617965,781,0.0102083043047834,781,-0.0127385834407624,781,0.0165128422127807
780,0.0131225869843703,780,-0.0157894653095618,780,0.0102101329216646,780,-0.0128528947321469,780,0.0159457706228159
779,0.0129764581352836,779,-0.0152881939009546,779,0.0103027664154467,779,-0.0125754593016709,779,0.0158995572198453
778,0.0131534302431706,778,-0.016077727704898,778,0.0104110891722742,778,-0.0127832760018148,778,0.0158507712990119
777,0.0127442949620075,777,-0.0160700944119347,777,0.0102344887125999,777,-0.0126109656410196,777,0.0159465493916685
776,0.0130143594174432,776,-0.0158482212835977,776,0.0100960048827445,776,-0.0128940575252819,776,0.0158292664226371
775,0.0131900394450972,775,-0.0153714545099681,775,0.0102689442861855,775,-0.0126557216213026,775,0.0164153261733659
774,0.0131564453159277,774,-0.0156779219078305,774,0.0105498326606965,774,-0.0126392781061141,774,0.0161812909966463
773,0.0132614789679578,773,-0.0156300303414288,773,0.0105606539702787,773,-0.0127057020622521,773,0.0161321241661808
772,0.0130860901790299,772,-0.015382997788227,772,0.0104959423104509,772,-0.0121524289803995,772,0.0163613213343787
771,0.0134622503760315,771,-0.0155750409144534,771,0.0103563146707207,771,-0.0125439236172969,771,0.0163896266668532
770,0.013416006797809,770,-0.0157087315211912,770,0.01017403903845,770,-0.012207450759988,770,0.0159886855537829
769,0.0129471475891506,769,-0.015819618051296,769,0.0103583294864364,769,-0.0126885062215641,769,0.015896227681714
768,0.0128809061082066,768,-0.0156754250849132,768,0.00988738206247144,768,-0.0129182809352803,768,0.0157357688347901
767,0.0127077233136127,767,-0.0156973966339504,767,0.0101742775344409,767,-0.0130259130267535,767,0.0160259911512074
766,0.0130863302795689,766,-0.0155226921028602,766,0.0101593055400858,766,-0.0126869475005946,766,0.0163002010119613
765,0.0130524240621159,765,-0.01558807718483,765,0.0102003273849628,765,-0.0125346183925197,765,0.0160072170914796
764,0.013197084135376,764,-0.0156028111955941,764,0.0100995022086122,764,-0.0124025633083853,764,0.0157737506411075
763,0.0128772796521723,763,-0.015608954381238,763,0.00991921466754657,763,-0.0124722933962564,763,0.0159186220022864
762,0.0130144661111538,762,-0.0157430839099101,762,0.0100354155332469,762,-0.0121680854753694,762,0.0163775839067632
761,0.0132526451291335,761,-0.0157261077783511,761,0.010135059953699,761,-0.0125189751058759,761,0.0161016059172117
760,0.0134553081852808,760,-0.0153713045952453,760,0.0101219175567427,760,-0.0123598946454394,760,0.0160822913378526
759,0.0129408003429196,759,-0.0154650911289624,759,0.0101128823895317,759,-0.01276321770471,759,0.0160088554248853
758,0.0130573591061868,758,-0.0157749872558783,758,0.0100448994470797,758,-0.012673421590186,758,0.0163981213145524
757,0.0132350313644837,757,-0.0155681979645789,757,0.0101885610331482,757,-0.0128510350266694,757,0.0162760132864264
756,0.013106926064297,756,-0.0152493068277628,756,0.0102051506212955,756,-0.0122317628298437,756,0.0166561581980923
755,0.0131959366969719,755,-0.0153243787437999,755,0.0106131464524643,755,-0.012290498798571,755,0.0167117330965549
754,0.0129859264778134,754,-0.0159197959863747,754,0.0102070057264561,754,-0.012448598496694,754,0.016233983598789
753,0.0130612538292078,753,-0.0156318781849043,753,0.0102173944617962,753,-0.012293719735908,753,0.0163095270837506
752,0.0130418605887024,752,-0.015742834265724,752,0.0103039062352739,752,-0.0123157623846687,752,0.0160671411424048
751,0.0131688793769493,751,-0.0155390268081821,751,0.0102684936956599,751,-0.0124676148879439,751,0.0160173426280238
750,0.0127996914141737,750,-0.0158921957026577,750,0.0101193474167346,750,-0.0127209364049295,750,0.0160219891734187
749,0.0131908399723286,749,-0.0153044874491811,749,0.0105267321887471,749,-0.0121622458197731,749,0.0162651829970783
748,0.0127727654032599,748,-0.015864593664776,748,0.00999403842155163,748,-0.0125891391416059,748,0.0160609361617205
747,0.0129031454787914,747,-0.0156559993123318,747,0.0102349392678459,747,-0.0123178760045346,747,0.0159168497477904
746,0.0131352335227768,746,-0.0161450744759089,746,0.0100646626815835,746,-0.0126222807907677,746,0.0164212673844939
745,0.0129599757103177,745,-0.0157166208275649,745,0.00985409538624943,745,-0.012692227016746,745,0.0157982862380953
744,0.0132204872033673,744,-0.0154759824451885,744,0.0103593103869442,744,-0.0124176070378281,744,0.016348177320052
743,0.0128105955905303,743,-0.016099678910836,743,0.00999186636454091,743,-0.01273295255566,743,0.0158203265064895
742,0.0127203044661496,742,-0.0158814645582093,742,0.00987919918241475,742,-0.0126603478191656,742,0.0160247019194369
741,0.0131706137699754,741,-0.0155402256614364,741,0.0100380911415961,741,-0.0123912927482306,741,0.0164648208256036
740,0.0131534836071082,740,-0.0157065344736503,740,0.0101586960716028,740,-0.0123664361040516,740,0.01604344987493
739,0.0129776850074634,739,-0.015770893373855,739,0.0102281279825359,739,-0.0126984617912646,739,0.0163658102811152
738,0.0128735199025204,738,-0.0156761741332956,738,0.0100563969834771,738,-0.0125937157565661,738,0.0164608416879619
737,0.0128831993239748,737,-0.0157509725922756,737,0.00998442317840048,737,-0.012527677067988,737,0.0160240304460722
736,0.0127514390546282,736,-0.0158633457915981,736,0.00984816389951657,736,-0.0127454711205912,736,0.0160346398466208
735,0.0128408834433464,735,-0.0159510874955894,735,0.00999268750676784,735,-0.0127654296926958,735,0.0161086174026168
734,0.0126753125317316,734,-0.0157574132456745,734,0.00982480945795588,734,-0.0127208861274497,734,0.0161188527627054
733,0.0127094558659454,733,-0.0159786840369877,733,0.00981466840785628,733,-0.0129335078229926,733,0.0160226337847991
732,0.0124368638058621,732,-0.0159563773844031,732,0.00949051789259925,732,-0.0130114430370949,732,0.0160625478364922
731,0.0124891040253166,731,-0.0161384899189317,731,0.00955449774285908,731,-0.0129264723636665,731,0.0159013294037758
730,0.0127058574957532,730,-0.0158102329852173,730,0.00985608139321396,730,-0.0127491914277635,730,0.0161077308867165
729,0.0124801526797971,729,-0.0158476721991418,729,0.00973969023667861,729,-0.012842540594987,729,0.0160960451644481
728,0.0124423779026087,728,-0.0160083246616241,728,0.00980222410077137,728,-0.0130788148229446,728,0.0161248705148363
727,0.0122700888047261,727,-0.0160877056633221,727,0.00957905496098921,727,-0.0130959449825773,727,0.0160097148809467
726,0.012474158578347,726,-0.0162788889526732,726,0.00961234702778887,726,-0.0129844110009415,726,0.0162326400057922
725,0.0122061869013012,725,-0.0163028245787451,725,0.00952933332733648,725,-0.013169883256256,725,0.0159770030342291
724,0.0123574632478971,724,-0.016064905691757,724,0.00949636512197273,724,-0.0132042863815876,724,0.0162178070153603
723,0.0123042535543863,723,-0.0163279057047989,723,0.00970157070663588,723,-0.0131322627049471,723,0.0159687851742741
722,0.0125081262471595,722,-0.0160948397630452,722,0.00978353183297516,722,-0.0130443515163661,722,0.0163296312280296
721,0.0125771354180831,721,-0.0160281338502989,721,0.0100459591151195,721,-0.0128998873490676,721,0.0162778407564216
720,0.0131476936581145,720,-0.015751072448096,720,0.0101784909852105,720,-0.0125703795455139,720,0.0165566468657426
719,0.0129270127368995,719,-0.0157525203549119,719,0.0100400514987704,719,-0.0125629861308773,719,0.0162520956380738
718,0.0129661098730647,718,-0.015679320122394,718,0.0102756236829233,718,-0.0124974961062519,718,0.0163385009993156
717,0.0132168045389326,717,-0.0152861446690988,717,0.0105868331064139,717,-0.012223356947203,717,0.0164861420963034
716,0.0128286187414123,716,-0.0155522140119663,716,0.0101660627479673,716,-0.012423896067916,716,0.0160723254583143
715,0.0132502698979871,715,-0.0153724039686778,715,0.0105690884132578,715,-0.0121544427091309,715,0.0164872444855428
714,0.0131317116649571,714,-0.0152147653890954,714,0.010529622995702,714,-0.0122314608249019,714,0.016305737503047
713,0.013206744085854,713,-0.0152589539457396,713,0.0106251630570903,713,-0.0122305044745338,713,0.0162729764782943
712,0.0130892915304643,712,-0.0151043743276971,712,0.0105316651369835,712,-0.0122035747969809,712,0.016173740974053
711,0.0131264022514695,711,-0.0151521239052064,711,0.0105119602003889,711,-0.0120769577639627,711,0.016220735953402
710,0.0132346310599529,710,-0.0151798712478072,710,0.0107756507701317,710,-0.0121693440115492,710,0.016289208867476
709,0.013356821134107,709,-0.0151072244498077,709,0.0107829748455924,709,-0.0121927521197256,709,0.0163141230025904
708,0.0132956684182933,708,-0.0151880201305708,708,0.0106292217205222,708,-0.0121365201951632,708,0.0163067856816355
707,0.01328547268776,707,-0.0151466242213896,707,0.0107202200155835,707,-0.0120894952519988,707,0.0163784709736803
706,0.0133023411463966,706,-0.015174621886527,706,0.0106581640083847,706,-0.0120688510027173,706,0.0163400330690668
705,0.0132365792121411,705,-0.015222313752818,705,0.0107151257296567,705,-0.0119957826181006,705,0.0162341985740543
704,0.0134886851181255,704,-0.015093623698768,704,0.0107729706139668,704,-0.0120082720896918,704,0.0163933632161003
703,0.0134519973333898,703,-0.015138624556965,703,0.0107360339088055,703,-0.0118843686975752,703,0.0165085130793761
702,0.0134163271751764,702,-0.0150681711489663,702,0.010864158287177,702,-0.0119408347492955,702,0.0164374784328179
701,0.0135357108939409,701,-0.0151115746001257,701,0.0109005750127363,701,-0.01195428276209,701,0.0164710046929418
700,0.0134132035059255,700,-0.0149725482428483,700,0.0107775348502074,700,-0.0118878948925262,700,0.0164229879314001
699,0.0132530454502688,699,-0.0149919045787293,699,0.010548188269605,699,-0.0118465358617662,699,0.0161150917099667
698,0.01299702203766,698,-0.0151985684572669,698,0.0104851491316845,698,-0.0120414580936327,698,0.0159170914184321
697,0.0133519894626502,697,-0.0148617453769231,697,0.0106836061641719,697,-0.0118731350570556,697,0.0163738206127177
696,0.0134395284644868,696,-0.0148749031331277,696,0.0107199812195958,696,-0.0119172619468967,696,0.0163513221707119
695,0.0133037824691312,695,-0.0149697472545771,695,0.0106575007812955,695,-0.0118242174769979,695,0.0162738902059413
694,0.0132593972616596,694,-0.0150329651637803,694,0.0108598850960978,694,-0.0118245701466239,694,0.0164683967033711
693,0.0135229992791649,693,-0.0148338276005978,693,0.010835043029135,693,-0.0118825048401064,693,0.0166020696156476
692,0.0134722633466072,692,-0.0149598936344221,692,0.0109245448301317,692,-0.0117193611354907,692,0.0165820066430064
691,0.0134146451966341,691,-0.0148116121738008,691,0.0108970181425901,691,-0.0117935341232004,691,0.016562536226006
690,0.0135384882710659,690,-0.0149613942001454,690,0.0108823131826495,690,-0.0119461233433332,690,0.0165362095226466
689,0.0135333341141589,689,-0.0148187172311987,689,0.0109771609621029,689,-0.0117106429619012,689,0.0165482835735618
688,0.0134133903914881,688,-0.0151659728004995,688,0.0108836137817786,688,-0.0119820840749626,688,0.0165353221334829
687,0.0134586724638633,687,-0.014769880124156,687,0.0108913909149934,687,-0.0117989252799469,687,0.0166140648114431
686,0.0133294067828621,686,-0.0150343654563265,686,0.0108835076102752,686,-0.0118908669488925,686,0.0164940202076894
685,0.0135351767849916,685,-0.0149247288932903,685,0.0110677011152183,685,-0.0117969602866407,685,0.0166235052097175
684,0.0136343453718724,684,-0.0146896072097799,684,0.0110402450102136,684,-0.0115337219795896,684,0.016706245229626
683,0.0135799908103388,683,-0.0147998535487972,683,0.0109225008406182,683,-0.011627534359824,683,0.016650375158815
682,0.0136729452477033,682,-0.0146921597565222,682,0.0110127640901001,682,-0.0116885191809343,682,0.0165846422085158
681,0.0135811659721509,681,-0.0147693296746437,681,0.0108059031847285,681,-0.0117579104988613,681,0.0164526684385098
680,0.0135556603336482,680,-0.0147250412231235,680,0.0108219059719983,680,-0.0116918957761925,680,0.0164281764969357
679,0.0134145384045657,679,-0.014853440276155,679,0.010881198386496,679,-0.0117873871151615,679,0.0164446566524823
678,0.013393607666104,678,-0.0148235205844298,678,0.0109115112437236,678,-0.0117835577874829,678,0.0163990890697697
677,0.0135559808140541,677,-0.0146814990206117,677,0.0110606908808411,677,-0.0116161932628148,677,0.0166221604111045
676,0.0136061656222277,676,-0.0146469123902422,676,0.0111818457751921,676,-0.0116687630526795,676,0.016694839296677
675,0.0135757442293887,675,-0.0147254916368881,675,0.0111560291412018,675,-0.011700362347368,675,0.0166958077133091
674,0.013726964120927,674,-0.0145882940250051,674,0.011252796301918,674,-0.0116693174460853,674,0.0167360527139786
673,0.0136837377990116,673,-0.0146287420437574,673,0.0112320226152011,673,-0.0115859488894856,673,0.0167258566023867
672,0.0137382389370498,672,-0.0146102705817568,672,0.0112734912821926,672,-0.0115335203191167,672,0.01681886799703
671,0.0135463130925154,671,-0.0146900576602951,671,0.0111804645995389,671,-0.0116462843239672,671,0.0167206644792351
670,0.0136019722044049,670,-0.0147720819152286,670,0.0111663078023436,670,-0.0116996064102236,670,0.0166735615762029
669,0.0136332502005328,669,-0.0146682853509397,669,0.0112790703288177,669,-0.0116357501695594,669,0.0167859606185203
668,0.0135408116674972,668,-0.0145887445806146,668,0.0111710089765007,668,-0.0116813123301082,668,0.0168026965206934
667,0.0134345623765561,667,-0.0147271431500284,667,0.0110863425162399,667,-0.0117526700020619,667,0.0165773541021149
666,0.0134472714030473,666,-0.0146881057046881,666,0.0112021389392438,666,-0.0117817438836397,666,0.0166188522242383
665,0.0137355404354564,665,-0.0145253117637808,665,0.0113500898849636,665,-0.0116839834146425,665,0.0166513703740421
664,0.0135984198502849,664,-0.0146150762409755,664,0.0113637478014613,664,-0.011641092882675,664,0.0167598086993731
663,0.013594627143372,663,-0.0146439591349771,663,0.0111433604284489,663,-0.0116951715524737,663,0.0166453722195197
662,0.0134263924844855,662,-0.0147716815904093,662,0.0111106678268311,662,-0.0119055758097981,662,0.0165475037249437
661,0.0135322926080161,661,-0.0146792967702519,661,0.0111883001734889,661,-0.0117725230886286,661,0.0166160819733222
660,0.0136298311468032,660,-0.014658575049529,660,0.0112397528607983,660,-0.0116562134126191,660,0.0167032861144711
659,0.0132611320162152,659,-0.0147021195503351,659,0.0109901965188994,659,-0.0118079943646119,659,0.0164304616361344
658,0.013388001389586,658,-0.0145194035791214,658,0.011147716086744,658,-0.0116240564548928,658,0.0166091160806542
657,0.013495173891681,657,-0.0146822497852274,657,0.011168963826687,657,-0.011728331096747,657,0.0166724856129722
656,0.0134531721489136,656,-0.0146391537953514,656,0.0112843040710426,656,-0.0115981477068336,656,0.0166477122968548
655,0.0134266594719932,655,-0.0146779954352447,655,0.0112339352404766,655,-0.011655406997645,655,0.0165696627276354
654,0.0134601944079742,654,-0.0147304962028423,654,0.011192842214978,654,-0.0117529219504704,654,0.016527577723198
653,0.0134943193974395,653,-0.0147203869202027,653,0.0112722426482392,653,-0.0116894263285081,653,0.0165401893508944
652,0.0135383280372874,652,-0.0146029618730932,652,0.0113088530235142,652,-0.0116466875401112,652,0.0167161987649355
651,0.0136006901484392,651,-0.0145835881940358,651,0.011462767254376,651,-0.0116186127216946,651,0.016770140133575
650,0.013362427008133,650,-0.0146765939931837,650,0.0111710886578572,650,-0.0117608834448946,650,0.016560734449775
649,0.0133695011905325,649,-0.0146681852458472,649,0.0112397528607983,649,-0.0116423025444438,649,0.0167169789165329
648,0.0134688722613862,648,-0.0147398045421298,648,0.0112708080519586,648,-0.0116514757032031,648,0.0166482771449972
647,0.0135751566554205,647,-0.0146479134891643,647,0.0114308744666573,647,-0.0116539453666879,647,0.0167679877311817
646,0.0136249697261267,646,-0.0146567230601742,646,0.0114748605487875,646,-0.0115780850074081,646,0.0167990640755518
645,0.0137657325475523,645,-0.0144363299985273,645,0.0115272775769783,645,-0.0114380739906685,645,0.0168946209485145
644,0.0137692328308341,644,-0.0145132449620969,644,0.0115420841410878,644,-0.0115153704930962,644,0.0168800344507569
643,0.0137761533212657,643,-0.0144497009605995,643,0.0115233168402013,643,-0.0115589792134956,643,0.0168768857692225
642,0.0136572110432827,642,-0.0145334729375132,642,0.0114866883822453,642,-0.0115190509357941,642,0.0167796915478952
641,0.0136388329320581,641,-0.0144887598403556,641,0.0113610905856097,641,-0.0115342261303621,641,0.0168405295702217
640,0.0136940764598274,640,-0.0145253117637808,640,0.0115863473472842,640,-0.0114778584488518,640,0.016955448157373
639,0.0137651714360621,639,-0.0144390342712572,639,0.0117286582000117,639,-0.0115450652304172,639,0.0170971332225028
638,0.0136923934052483,638,-0.0145096899482857,638,0.0114248682537095,638,-0.0114104395478399,638,0.0168066787917601
637,0.0137712101025617,637,-0.0145139960176293,637,0.0115550303298151,637,-0.0115502074065287,637,0.0170505548443629
636,0.0136729719616081,636,-0.0142592636508172,636,0.0116382194637068,636,-0.0113124441300354,636,0.0169922446797997
635,0.0136333303349274,635,-0.0146716388582055,635,0.0115570507144088,635,-0.0115543412686668,635,0.0167853686852362
634,0.013571470982298,634,-0.0145201546240034,634,0.01155194660303,634,-0.0115416370791842,634,0.0167673689174679
633,0.0137580106483243,633,-0.0144451438624653,633,0.0116589594090457,633,-0.0114308125555736,633,0.0169007571124156
632,0.013627667540771,632,-0.0143907554620365,632,0.0116612993624906,632,-0.0113728175711673,632,0.0168789579758693
631,0.0136611378626525,631,-0.0144893607187615,631,0.0115671261936781,631,-0.0114498231389115,631,0.0168987117148154
630,0.0137918383931156,630,-0.0143004436538963,630,0.0117532588797149,630,-0.0113552662580952,630,0.0169991628818624
629,0.0139490945085672,629,-0.0142810063774447,629,0.011772488273193,629,-0.0112974629540143,629,0.0169693104168456
628,0.0138877247085123,628,-0.0142663276514265,628,0.0116930229299722,628,-0.0112628579928531,628,0.0169574669054979
627,0.0138420237404336,627,-0.01424217931622,627,0.0117010539072423,627,-0.0112600834232131,627,0.0168216126334849
626,0.0137347389035595,626,-0.014328846563051,626,0.0116167094641521,626,-0.0112820272624337,626,0.0167940594231224
625,0.0136006367295227,625,-0.0142414277904685,625,0.0117193236040926,625,-0.0113548627712933,625,0.0168029117776553
624,0.0136292434996542,624,-0.0142424298245148,624,0.011743365249655,624,-0.0113516852996282,624,0.0168704808293701
623,0.0139548416891501,623,-0.0141259779913435,623,0.0120117433263925,623,-0.0110868142711273,623,0.017177270492511
622,0.0137707558636657,622,-0.0143373119738209,622,0.0118059223163132,622,-0.0113402361216252,622,0.017139031106502
621,0.0138929899827848,621,-0.0141534401872128,621,0.0118274948908456,621,-0.0112027719840363,621,0.0170050582460752
620,0.0137265633627077,620,-0.0144427400991309,620,0.0117717435505431,620,-0.0113218764572263,620,0.0170401359718063
619,0.0137667746136718,619,-0.014131741187371,619,0.0118579270769203,619,-0.0109903106220354,619,0.0170792282259654
618,0.0136919125337094,618,-0.014251097322524,618,0.0117518492896209,618,-0.0112674990515365,618,0.0169877223349046
617,0.0137904756131244,617,-0.0141629613460686,617,0.0117866648443119,617,-0.0111557467393697,617,0.0170568816718956
616,0.0138378013205806,616,-0.014212969058313,616,0.0117950965329024,616,-0.0112629084394098,616,0.0169787585404507
615,0.0138753502289182,615,-0.0141555448824045,615,0.0118066670975748,615,-0.0111490356401323,615,0.0170407551743004
614,0.0138265773661419,614,-0.0142311568081927,614,0.0117962402761401,614,-0.0111388426444247,614,0.0171435550272708
613,0.0138237446996734,613,-0.0142226392240136,613,0.0117521684416943,613,-0.0112820272624337,613,0.017016795373821
612,0.0138859607222702,612,-0.0141670704133039,612,0.0118405293947809,612,-0.0111757785015303,612,0.017179209480647
611,0.0141067552140699,611,-0.0139011536717572,611,0.012035641485289,611,-0.0110548170064923,611,0.0172634022304626
610,0.0139397922565196,610,-0.0140503978736123,610,0.0119016371729621,610,-0.0110922646742787,610,0.0171713189302155
609,0.013753147792624,609,-0.0141740356945667,609,0.011687864036159,609,-0.0111742647986264,609,0.0169477231678736
608,0.0138784237708515,608,-0.0139619203495558,608,0.0118469403861591,608,-0.0111237545532165,608,0.0171047262409223
607,0.0139008746499217,607,-0.0141116448417782,607,0.0118439609925029,607,-0.011231075497392,607,0.0171077150186264
606,0.0141229068376625,606,-0.0139097277033757,606,0.0119551168590656,606,-0.0110304389592831,606,0.0171808522412585
605,0.0138817646019721,605,-0.0139436711845138,605,0.0118316446088347,605,-0.0110533028819261,605,0.0170995834373435
604,0.0137462276687733,604,-0.0138751798411457,604,0.0117763448930603,604,-0.0108675302175541,604,0.0170538393986415
603,0.013976708401604,603,-0.0138689117922129,603,0.0118925116952266,603,-0.0109120623200217,603,0.0171714266500753
602,0.0138433866821883,602,-0.014030147385142,602,0.0118367254072891,602,-0.0109687054030794,602,0.0171366075969033
601,0.0138422108106172,601,-0.0140209742046254,601,0.0118660409131701,601,-0.0110483062334039,601,0.0172326158484006
600,0.0139549753454175,600,-0.0139713955751155,600,0.0118896916155271,600,-0.0110045452490317,600,0.0172369252718309
599,0.0141636361980562,599,-0.0138050728294687,599,0.012136677632661,599,-0.0108326889944904,599,0.0173337908456657
598,0.0140862189177385,598,-0.0138704662767839,598,0.0120018171948228,598,-0.0108781840045411,598,0.0173438934774713
597,0.0137824326261554,597,-0.0139706435806393,597,0.0117339239580175,597,-0.0109854646851174,597,0.0170876825233207
596,0.013751972165353,596,-0.0139848811216712,596,0.0117189778821709,596,-0.0109750659296396,596,0.0171088459128512
595,0.0138979345878118,595,-0.0140131542911976,595,0.0118156311722416,595,-0.0110224135884533,595,0.0172152708515211
594,0.0138017520782252,594,-0.0139774114840503,594,0.0118480044602756,594,-0.0109543181541046,594,0.0171789401762215
593,0.0138987364209588,593,-0.0139024071957165,593,0.0119119334961422,593,-0.0109484116717909,593,0.0172095342270479
592,0.0139853698488521,592,-0.0139434706399789,592,0.0119203676171579,592,-0.0108815164150576,592,0.0173068247046949
591,0.0139570336571285,591,-0.0139330923338964,591,0.0120045847797434,591,-0.0109087806315894,591,0.0172603315746913
590,0.0139005539149061,590,-0.013807730883953,590,0.0118890265050591,590,-0.010862884882639,590,0.0172083222738265
589,0.01389705257306,589,-0.013937755081804,589,0.0119187180285538,589,-0.0109244820240378,589,0.0171914360774582
588,0.0139133300428981,588,-0.013913989585935,588,0.0119732641992528,588,-0.0109325596896858,588,0.0171706995415401
587,0.0139550555391976,587,-0.0138319535364928,587,0.0120896433932808,587,-0.0108894938999943,587,0.0173064475677426
586,0.014001757565779,586,-0.0138204191085386,586,0.0120488153088532,586,-0.0107800683999111,586,0.0172353631008964
585,0.0141766607719809,585,-0.0136736042132401,585,0.012200595932079,585,-0.0106975391954464,585,0.0173292380030848
584,0.0141473493441503,584,-0.013664172656716,584,0.0121097128418221,584,-0.0106326260796336,584,0.0172539479124408
583,0.0140851226063064,583,-0.0135451569089527,583,0.0120875406798017,583,-0.0107002668493719,583,0.0172739611423085
582,0.0141636896862674,582,-0.0136407433826002,582,0.0121418951004084,582,-0.0107849166292075,582,0.0172853284210883
581,0.0142195884676589,581,-0.0136112919452807,581,0.0121137854027966,581,-0.0107508768753756,581,0.0172079182901709
580,0.0141525642801575,580,-0.0135929778638639,580,0.0121631649160019,580,-0.0107790583453286,580,0.0171941830694712
579,0.0143365177471631,579,-0.0134755486904625,579,0.0124060447572043,579,-0.0106169646533925,579,0.0173830130846242
578,0.014216298531502,578,-0.0136052207874264,578,0.0122403199982191,578,-0.0108086519707052,578,0.0171163045032817
577,0.0144148092086169,577,-0.0133612003792496,577,0.0123590612374215,577,-0.0106211074081753,577,0.0172942446702394
576,0.0143817356323164,576,-0.0133340394855311,576,0.0122434618689583,576,-0.0105591640501758,576,0.0172502578213633
575,0.0143525976509202,575,-0.0132655021382546,575,0.0122705148489678,575,-0.0105986249105713,575,0.0171436358119985
574,0.0145733351050628,574,-0.0131079507621137,574,0.0124303641875185,574,-0.0104500090651299,574,0.0171545688171124
573,0.0145642068542323,573,-0.0130105888906917,573,0.0124513018307033,573,-0.0104015374775065,573,0.0171563999877355
572,0.0146556854184258,572,-0.0129987311553209,572,0.0124932067870067,572,-0.0103325862949491,572,0.0172162942948384
571,0.0147701075946417,571,-0.0129176276245233,571,0.0125313057108797,571,-0.0103817732650818,571,0.0172461637424061
570,0.0148028090090687,570,-0.0128846090239852,570,0.0125931236631053,570,-0.0103365295462548,570,0.0173065283827763
569,0.0150750681923713,569,-0.0126166986870695,569,0.0129125855559255,569,-0.0103030613270401,569,0.0173674671989823
568,0.0152245859414162,568,-0.0123890788538307,568,0.012891332337987,568,-0.0102190255178345,568,0.0174975093724828
567,0.0153963080382211,567,-0.0121841944630489,567,0.0130982020828744,567,-0.010108267575669,567,0.0174457141849049
566,0.0155078940731787,566,-0.0119979985183019,566,0.012974511149591,566,-0.0100301637169352,566,0.0173465875523104
565,0.015560263558681,565,-0.0118225548877608,565,0.0130245487850873,565,-0.00992917443646933,565,0.0174309205438446
564,0.0156766419337204,564,-0.0117535266260545,564,0.0131115148954998,564,-0.010059454310031,564,0.017395407083634
563,0.0160460553138853,563,-0.0112538784124158,563,0.0134507424203179,563,-0.00982603589524662,563,0.0175737042596227
562,0.0160819421252693,562,-0.0110906497471428,562,0.0135323727237845,562,-0.00982016466245929,562,0.0175928965899297
561,0.01613658387863,561,-0.0107312295716418,561,0.013496802775986,561,-0.00975841068233673,561,0.0174878613095566
560,0.0164052720012254,560,-0.0102525002135133,560,0.0136159682282122,560,-0.00968282603347447,560,0.0175568308046821
559,0.0164797966907006,559,-0.0100609213171492,559,0.0137109875130883,559,-0.0097853405468004,559,0.017627213080982
558,0.0166592514832701,558,-0.00943643913128001,558,0.0138656486696801,558,-0.0095754762631237,558,0.0176543608829686
557,0.0166115904389999,557,-0.00895171519406436,557,0.0138959567390454,557,-0.00956580335331326,557,0.0177194470332569
556,0.0167073481777054,556,-0.00831146453132216,556,0.0138410616664761,556,-0.00941121013753461,556,0.0177023791745704
555,0.0167951625942404,555,-0.00779614270541591,555,0.013927443022844,555,-0.00952017064817553,555,0.0177415041222064
554,0.0168978235846465,554,-0.00716589777117892,554,0.0139848351866121,554,-0.00943831351610161,554,0.0177853789484602
553,0.0166104608388758,553,-0.00652316002645088,553,0.0136943168967282,553,-0.00947802830904419,553,0.0176460303441893
552,0.0165392481720027,552,-0.00588549654589757,552,0.0135468205090128,552,-0.00970515347757308,552,0.0174453099803655
551,0.0165762245910359,551,-0.00475168365419206,551,0.0135960961456407,551,-0.00958514895749713,551,0.0175920339950836
550,0.0165048024279472,550,-0.00376592720782908,550,0.0137117355685674,550,-0.00965310495621215,550,0.0176014148060319
549,0.0164908743235461,549,-0.00245665801265855,549,0.0137659463045012,549,-0.00952280440859739,549,0.0176436309629839
548,0.0165893217213811,548,-0.00120621442513987,548,0.0137545104554884,548,-0.00955932086386446,548,0.0177684433335391
547,0.0163507308295332,547,-1.13896767091457E-05,547,0.0136164490156692,547,-0.00963264838229782,547,0.0175416290839731
546,0.016125649604914,546,0.00146276576945753,546,0.0134049539233602,546,-0.00964490218833533,546,0.0173328748853349
545,0.0161695226911804,545,0.00332556045251933,545,0.0134635854254366,545,-0.00968591447850358,545,0.0175545666848952
544,0.0160260448692809,544,0.0049699345133173,544,0.0134083979047943,544,-0.00976342219335102,544,0.0175378017842394
543,0.0159289065915901,543,0.00704877166153854,543,0.0133239614896902,543,-0.00971107689252946,543,0.01753707406205
542,0.0157900986035987,542,0.00902484449188626,542,0.0131720279724923,542,-0.00969907809625643,542,0.017467460943705
541,0.0153152920115334,541,0.0105406559770879,541,0.0127769774809576,541,-0.0098165204090821,541,0.0171444436601021
540,0.0151894132785021,540,0.0127202511554123,540,0.0127483468210093,540,-0.00998503513720484,540,0.0171620012634533
539,0.0153753352104707,539,0.0152783691640738,539,0.0129496811797271,539,-0.00991444908775416,539,0.017396565671184
538,0.0154925224671313,538,0.0176811329196079,538,0.013149988283044,538,-0.00993980066662629,538,0.0177841923551992
537,0.015252790469875,537,0.0197100333262738,537,0.0130061440804366,537,-0.00998134167139838,537,0.0175427880616724
536,0.0150873965004703,536,0.0218730116843805,536,0.0127780171773086,536,-0.00994061027350273,536,0.0173496049359711
535,0.0150886561516555,535,0.0241567617386477,535,0.0129635495163401,535,-0.00993408277509134,535,0.017514137961629
534,0.0149246642148367,534,0.0259678518037571,534,0.0126928503025459,534,-0.0100184266900145,534,0.0173312315495835
533,0.0147849447862854,533,0.0274384830089332,533,0.012535568735445,533,-0.010079991958756,533,0.0171513642871005
532,0.0147701611575988,532,0.029250491098432,532,0.012597254055405,532,-0.0100923343149057,532,0.0172305958208878
531,0.0148801934158767,531,0.0307445800819366,531,0.0127931863635514,531,-0.0100407874764242,531,0.0173837405487081
530,0.0149385153876656,530,0.0319404761172059,530,0.0127806030995395,530,-0.00997815413456027,530,0.0174209506146272
529,0.0145405706623143,529,0.0326030826239696,529,0.012423944578,529,-0.010124301409881,529,0.0171896047591023
528,0.0142813262004605,528,0.0330318169259867,528,0.0122212828777329,528,-0.0101490844053848,528,0.0169335116994216
527,0.0144626579659363,527,0.0331990478377388,527,0.0125037302815333,527,-0.0102165476810014,527,0.0172125237261212
526,0.0146270109593285,526,0.033385994678013,526,0.0126028767816067,526,-0.0101680500283033,526,0.0173842524686087
525,0.0144759056174751,525,0.0330546935309248,525,0.0124729597679845,525,-0.0101632960566087,525,0.0173239309036348
524,0.0146467160797465,524,0.0327241752487621,524,0.0126315778025689,524,-0.0101412956163313,524,0.0174270133821496
523,0.0146002123594504,523,0.031766627137317,523,0.012662492816021,523,-0.0101616776713927,523,0.0174881577552258
522,0.0147073363493807,522,0.0309482356459942,522,0.0127087894988456,522,-0.0100454922011703,522,0.0175525721129576
521,0.01485270952424,521,0.0297956514614034,521,0.012728780956619,521,-0.0101076100240907,521,0.0177364346676533
520,0.0147350520562402,520,0.0284923781653785,520,0.0126735001581023,520,-0.0100991123448954,520,0.017455819420656
519,0.0146784978249216,519,0.0272445142704942,519,0.012718918389107,519,-0.0100700267677399,519,0.0174685927750903
518,0.0145570061113824,518,0.0258322817945472,518,0.0125026912416142,518,-0.0101151970971574,518,0.0173649885303512
517,0.0145681418831159,517,0.0242890447619518,517,0.0125210746226503,517,-0.0101858516727921,517,0.0174235104394798
516,0.0147140575805665,516,0.0227927915125381,516,0.0127374975202981,516,-0.010055508542159,516,0.0176307176670733
515,0.0146633161956745,515,0.0211583405552844,515,0.0127071102582889,515,-0.0102080521331024,515,0.0175614129879869
514,0.014716788947267,514,0.0195733695675319,514,0.0127582100568536,514,-0.010025205873569,514,0.0177154833475071
513,0.0146272251406138,513,0.018126308175047,513,0.0127331525446694,513,-0.0101170179749708,513,0.01758796364877
512,0.0145538474588827,512,0.0167874404552604,512,0.0125613875721341,512,-0.0101014896885646,512,0.0174711528807722
511,0.0144464134175481,511,0.0152890676182153,511,0.01246869735794,511,-0.0102084061175828,511,0.0174243996453279
510,0.0143553267452639,510,0.0140656568543804,510,0.0124122776467964,510,-0.0102137664187366,510,0.0174199805796779
509,0.0143983791398687,509,0.0127868680265152,509,0.0124581480729743,509,-0.0102047651205766,509,0.0174241032431762
508,0.014405470217076,508,0.011633752528191,508,0.0123745886751085,508,-0.0102051191077362,508,0.0174865677308227
507,0.0144889663240718,507,0.0107110927956767,507,0.0126011446544021,507,-0.0100805483840014,507,0.0175951339532969
506,0.014372531136783,506,0.00960821846117319,506,0.0125021051176282,506,-0.0101972807530895,506,0.0175682324444211
505,0.0143025405410001,505,0.0088938531227579,505,0.0124454679584483,505,-0.0102026917614188,505,0.0175132485720254
504,0.0142305551015143,504,0.00803444480791848,504,0.0123183409718518,504,-0.0102536631852634,504,0.017469374279435
503,0.014220578128127,503,0.00732434622404454,503,0.0123754143348527,503,-0.0101668868272718,503,0.0174975363226794
502,0.014170349020026,502,0.00666881774181636,502,0.0123377019300658,502,-0.0101720453472484,502,0.0175519791338778
501,0.0142490652677884,501,0.00612093164560258,501,0.0122822312294013,501,-0.0102677702902216,501,0.0175323843260798
500,0.0141573781228216,500,0.0056646512658543,500,0.0122750149667926,500,-0.0102888036889417,500,0.0174583794510416
499,0.0141618443467883,499,0.00531331498453085,499,0.01222447786066,499,-0.0102226663952882,499,0.0174391122245365
498,0.0140745607232969,498,0.00489557860017386,498,0.0122337168185465,498,-0.0102709557021166,498,0.0175067264372517
497,0.0140361390271398,497,0.00452500999802132,497,0.0120901224939787,497,-0.0102740399675616,497,0.0173247121477064
496,0.0139547614954095,496,0.00417218958093571,496,0.0120730348958302,496,-0.010302201837292,496,0.0173053430971233
495,0.0139569534629831,495,0.00379103485799719,495,0.0121167134114098,495,-0.010304325279462,495,0.0174596729458172
494,0.0140145366713831,494,0.00341141450201341,494,0.0121602898362359,494,-0.0102615005223683,494,0.0175031419999305
493,0.014072742500998,493,0.00311925143934081,493,0.0122139611305094,493,-0.01019935413808,493,0.017559283614438
492,0.0138057603709518,492,0.00278085719664694,492,0.0118934694623091,492,-0.0102362688479566,492,0.0172507695839467
491,0.0136189330926763,491,0.00241703361853043,491,0.011692624044244,491,-0.0102116425337404,491,0.0170350477760501
490,0.0138940590818043,490,0.00196264983104575,490,0.0119906671996204,490,-0.0100898557551373,490,0.0173236884488638
489,0.0139141586332147,489,0.00149050614294257,489,0.0120619096870617,489,-0.0102213516375065,489,0.0173929013118297
488,0.0137863605779265,488,0.00105530598102653,488,0.0118689938551338,488,-0.0101678983066063,488,0.0172387298555947
487,0.013556701895832,487,0.000548222392411829,487,0.0116418355880138,487,-0.0102515394953708,487,0.0170769127464827
486,0.0137715040221006,486,-2.62993475008019E-05,486,0.0118595498320432,486,-0.0102133113013976,486,0.0173255742117613
485,0.0138125745534899,485,-0.000474437647008418,485,0.0118453176781511,485,-0.0101350240223253,485,0.0172695166710865
484,0.0134286084857722,484,-0.00108316665116988,484,0.011433824451222,484,-0.0102379375209905,484,0.016893867390504
483,0.013324094951942,483,-0.00162631752184695,483,0.0113469278993791,483,-0.0102846577630705,483,0.0168164731813523
482,0.0135147743149206,482,-0.00218496505641901,482,0.0116012356857687,482,-0.010266354544102,482,0.0171505025687784
481,0.0136696861636464,481,-0.00280164225230562,481,0.0117824623603382,481,-0.0102129573209152,481,0.0173165765024664
480,0.0136076079536397,480,-0.00337008287048255,480,0.0117764512830593,480,-0.0102958314484872,480,0.017289153496491
479,0.0137127507887785,479,-0.00386179162199892,479,0.0118421254833718,479,-0.0102234754750218,479,0.0173267056734301
478,0.0135928643472085,478,-0.00448916035582237,478,0.0117263444780477,478,-0.0103366306547919,478,0.0172941907950725
477,0.013675296077616,477,-0.00490666436758655,477,0.0118306071756202,477,-0.0102981571568173,477,0.0173326593655379
476,0.0136754563619371,476,-0.0054660188323505,476,0.0118751658347076,476,-0.0103690347282302,476,0.0173837405487081
475,0.0137010224683652,475,-0.00585832376211267,475,0.0118258456549634,475,-0.0103271769047838,475,0.0174162621324436
474,0.0137133652653224,474,-0.00622118531873647,474,0.011830021957977,474,-0.0102832420720009,474,0.0173853571399239
473,0.0136245957729441,473,-0.00670942353879728,473,0.0118698185542239,473,-0.0103057409018073,473,0.0173906380464976
472,0.0136161017802302,472,-0.00708089612235062,472,0.0117713179953165,472,-0.0103187340770773,472,0.0173702961315543
471,0.0138280738766407,471,-0.00732806267355438,471,0.0118573684249204,471,-0.0102161431348699,471,0.0174464417540238
470,0.0137840358674854,470,-0.00763786600332017,470,0.0118720798339565,470,-0.010324598573611,470,0.0174048914261164
469,0.0137188154431567,469,-0.00795639503387393,469,0.0117475673553177,469,-0.0103137289699878,469,0.0173886172838464
468,0.0137665608563152,468,-0.0081332038992994,468,0.0118015068536375,468,-0.0102318190218542,468,0.0174423188784664
467,0.0136335707382,467,-0.00851660990851041,467,0.0116859494107483,467,-0.0103158523557978,467,0.0173855996291252
466,0.0137261091705063,466,-0.00864569010552643,466,0.0117226478673858,466,-0.0102016297931387,466,0.0174227559632182
465,0.0135144271607649,465,-0.00910160502801462,465,0.0115948283203946,465,-0.0103894566463418,465,0.0173490391749378
464,0.0135428413113331,464,-0.00922665955755533,464,0.0115627397425749,464,-0.010330715765784,464,0.0172613281886584
463,0.0136239280002045,463,-0.009370982565893,463,0.011700708199864,463,-0.0102762141087294,463,0.0173841446959479
462,0.0136517349258928,462,-0.00941901203109048,462,0.0116609005058984,462,-0.0101981910208896,462,0.017363776143238
461,0.0136576384504717,461,-0.00958038860080117,461,0.0115803921547986,461,-0.0102026917614188,461,0.0172928977930713
460,0.0134989123237556,460,-0.00971578519037671,460,0.0113860159092994,460,-0.0102054730946074,460,0.0171111077101352
459,0.0134234556327331,459,-0.00995933201153174,459,0.0113584068141023,459,-0.01029396076101,459,0.0171121309080144
458,0.0134473515031331,458,-0.010181704763984,458,0.0114201111793941,458,-0.0103554869853963,458,0.0171580695912093
457,0.0135913419380981,457,-0.0102022366324739,457,0.0115592306135908,457,-0.0101755854725632,457,0.0173426542086573
456,0.0135857598170187,456,-0.0103878391036885,456,0.0115336307805369,456,-0.0102775287004344,456,0.0173073634723378
455,0.0136112672233443,455,-0.0105524942547573,455,0.0115260547953269,455,-0.0102966403919277,455,0.0173532958712762
454,0.0136750823652799,454,-0.0104664851402721,454,0.0116566992387109,454,-0.0101744728648595,454,0.0173994756256376
453,0.0135214504103569,453,-0.0108572296252423,453,0.0114160982689531,453,-0.010302201837292,453,0.0173642341557497
452,0.0134860682739189,452,-0.0108012285033076,452,0.0113650764154839,452,-0.0101913639658833,452,0.0172909582972875
451,0.0135165634984311,451,-0.0110745506139337,451,0.0114512590033929,451,-0.0103067015000566,451,0.0173221798444413
450,0.0135300760776161,450,-0.0110594602889124,450,0.0114501427458499,450,-0.0102357631881957,450,0.0173634528405795
449,0.0135632718071789,449,-0.0112587213552666,449,0.0114145834713407,449,-0.0102462302252055,449,0.017359869585563
448,0.0135295419755966,448,-0.0113621254763745,448,0.0113637478014613,448,-0.0102164465445038,448,0.0173523798698069
447,0.0134372323092457,447,-0.0114851695181311,447,0.011298278737494,447,-0.0102900676828591,447,0.0172814225689979
446,0.0134592331794942,446,-0.0114420072173185,446,0.0112866420067314,446,-0.0101635995031653,446,0.0173001979173566
445,0.0135365387641104,445,-0.0115864529796341,445,0.0113435799397352,445,-0.0102168510903528,445,0.0173166034414375
444,0.0134475384033909,444,-0.011753677794819,444,0.0112373886130029,444,-0.0102633207868761,444,0.0173353803108245
443,0.0135573161516242,443,-0.0118575686802635,443,0.0113936957482704,443,-0.0102455223176127,443,0.0175271825517419
442,0.0136105193408979,442,-0.0118635131877371,442,0.0114128029265165,442,-0.0101800864473662,442,0.0175641623211761
441,0.0134694062887983,441,-0.0119994086307252,441,0.0112516805543621,441,-0.0102935562869825,441,0.0174416182629813
440,0.0134675905982764,440,-0.0120776626925718,440,0.0113006964535536,440,-0.0103050330912115,440,0.0174872953683864
439,0.013497710681365,439,-0.0121116993125587,439,0.0113397005902047,439,-0.0102381903496788,439,0.0174641732597425
438,0.0135379274530999,438,-0.0122039271586837,438,0.0113673882135724,438,-0.01028759025132,438,0.017573246026148
437,0.0134348293690864,437,-0.0122567278454639,437,0.0112637945383578,437,-0.0102565958828046,437,0.0174875109649357
436,0.0135664499706936,436,-0.0122376015507743,436,0.0113244758067072,436,-0.0101845873755221,436,0.0175811708378915
435,0.0135807920566839,435,-0.012256375526598,435,0.0113142996783329,435,-0.0102411231517062,435,0.0175911714019507
434,0.0134249774534346,434,-0.0123898335918258,434,0.0112128968257057,434,-0.0103224752305634,434,0.0175626259269543
433,0.0134164339676847,433,-0.0124545852281902,433,0.0111897876204415,433,-0.0102756073727542,433,0.0175178302955206
432,0.0133642422590412,432,-0.0125179690874514,432,0.0111517265180701,432,-0.0103289463388885,432,0.0175582863164924
431,0.0134442810104135,431,-0.0125053433580757,431,0.0112380792908033,431,-0.0103462358584748,431,0.0176441162300235
430,0.0135339750422574,430,-0.0124286253585493,430,0.0113042034941773,430,-0.0102711073878146,430,0.0177302866851475
429,0.0134160868921287,429,-0.0126450610646952,429,0.0111817395307551,429,-0.0104055811952966,429,0.0176727479451344
428,0.0135472745137498,428,-0.0125536813145303,428,0.0113426233845773,428,-0.0102489101506396,428,0.0177831406047919
427,0.0134308778963995,427,-0.0125481486265164,427,0.0112101077184421,427,-0.0103109483300134,427,0.0176958811613872
426,0.0133850381012342,426,-0.0125816957527316,426,0.0111374644240043,426,-0.0102855172875398,426,0.0176740420785397
425,0.0133360266429846,425,-0.0126410381451383,425,0.0110800755172118,425,-0.0103116055737959,425,0.0176537408049984
424,0.0131963636504426,424,-0.012639680401377,424,0.0109432597268449,424,-0.0103631202805373,424,0.0175235709937696
423,0.013190759919539,423,-0.0126908694330084,423,0.0109318979628687,423,-0.0103465897303425,423,0.0175996626276784
422,0.0132225954093816,422,-0.0126857910265828,422,0.0109875150383879,422,-0.0102928484565279,422,0.0176390748711119
421,0.0131265356530235,421,-0.0127332039360162,421,0.0108883915262996,421,-0.0103670632546154,421,0.0176667626282965
420,0.0131524163296013,420,-0.0127355166284652,420,0.0108758367878305,420,-0.010466939992376,420,0.0176577848077016
419,0.013200312989944,419,-0.0127356171800315,419,0.0109593472188091,419,-0.0103726237982446,419,0.0178296088280554
418,0.0131707471851104,418,-0.0127700044502849,418,0.0108689092756873,418,-0.0104392436845405,418,0.017755445427356
417,0.0131240810709898,417,-0.0128333422952106,417,0.0108889489332508,417,-0.0105062070948814,417,0.0178422043799775
416,0.0132684180610179,416,-0.0126440050519186,416,0.010960090549673,416,-0.0103615531911549,416,0.0179467858423782
415,0.013186250302891,415,-0.0127658318711191,415,0.0109452507207657,415,-0.0104579944802213,415,0.0179784053150313
414,0.0132678575916933,414,-0.0128530957809107,414,0.0109734441744169,414,-0.0104470776733801,414,0.0180500432675136
413,0.0131305643992587,413,-0.0127966476852304,413,0.01086909506959,413,-0.0104180153916104,413,0.0179353742601819
412,0.0132670302335361,412,-0.0127280254713056,412,0.011056760950462,412,-0.0104996375567007,412,0.0182043680842042
411,0.0131990854886848,411,-0.0127529619768391,411,0.0109341543643036,411,-0.0104642108726066,411,0.0181470364092815
410,0.0131609546230965,410,-0.0127760872950796,410,0.0108526658874331,410,-0.0104660808268909,410,0.0181180495448331
409,0.0130603735120452,409,-0.0128377152816928,409,0.0108120335360444,409,-0.0105083295398235,409,0.0180892535235258
408,0.01322243529211,408,-0.0126836289147348,408,0.010965957598643,408,-0.0104949377491796,408,0.0183131679171089
407,0.0131258953259381,407,-0.0127154561253768,407,0.0108342999122692,407,-0.0103965838719018,407,0.0182511243747899
406,0.0130067575580257,406,-0.0130347053197165,406,0.0108194643809282,406,-0.0106484384950813,406,0.0183456511654305
405,0.0129702971556535,405,-0.0128742053831827,405,0.0108214548073971,405,-0.0105953913769805,405,0.0183323119481788
404,0.0129087988336716,404,-0.0128592277234979,404,0.0107055475726032,404,-0.0106183287355506,404,0.0182925937497855
403,0.0128728799483745,403,-0.0128741551234435,403,0.0106192475567495,403,-0.0105814464875801,403,0.0182934577372063
402,0.0127928397857194,402,-0.0128904892324596,402,0.010649542135226,402,-0.0105985743867941,402,0.0184173227193138
401,0.0128417899785403,401,-0.012854302071539,401,0.0106235183807473,401,-0.0105551217621502,401,0.0183769216247922
400,0.01281414150638,400,-0.0129041088967497,400,0.0106124037151862,400,-0.0105333938193765,400,0.0184810647084047
399,0.0128391503666248,399,-0.0127571849529399,399,0.0105394890138785,399,-0.0105145957453248,399,0.0184643180255351
398,0.0127886275541764,398,-0.0127666864990322,398,0.0106156134103971,398,-0.0104895303808306,398,0.0185884749169487
397,0.0127151333551017,397,-0.0129823508697063,397,0.0105958516139964,397,-0.0106340911519101,397,0.0186303277859698
396,0.0127120946897019,396,-0.0130455572758827,396,0.0106732328007754,396,-0.0107119854639251,396,0.0187625055780878
395,0.0127855617151351,395,-0.0129270754075032,395,0.01063736568901,395,-0.0106167625667824,395,0.0188732296961647
394,0.0127146802194388,394,-0.0130199844087349,394,0.0105458543058427,394,-0.010622673561275,394,0.0188429507658703
393,0.0126262478502506,393,-0.0129308946656903,393,0.0105902282872877,393,-0.0105790717697677,393,0.0189819538606984
392,0.0126368278695516,392,-0.0130163166638456,392,0.0105761172408717,392,-0.0106581883556868,392,0.0189885252308156
391,0.0124089214643622,391,-0.0129829035888018,391,0.0103759064989426,391,-0.0106625327826627,391,0.0188478439142734
390,0.0123658793921229,390,-0.0131379888736188,390,0.0103317929917851,390,-0.0106599059250345,390,0.0189633760806236
389,0.0125672496477313,389,-0.0129406939245012,389,0.0106018728983178,389,-0.0105780612476113,389,0.0191159699789032
388,0.012439234592502,388,-0.0130537965429855,388,0.0104760533686669,388,-0.0106273214662544,388,0.0192677515819011
387,0.0122032050420923,387,-0.0131954472985875,387,0.0102875514326143,387,-0.0106744544752894,387,0.0191428593233466
386,0.0122438612609348,386,-0.013128495447541,386,0.0102605421750671,386,-0.0106305547621197,386,0.0191000643898118
385,0.0122592514448629,385,-0.0130974017684981,385,0.0103523645986152,385,-0.0106397493156792,385,0.0192917005834507
384,0.0120487620804792,384,-0.0132056423613592,384,0.0101427971959619,384,-0.0106827388486297,384,0.0192103334792812
383,0.0121802826830578,383,-0.0132050397042056,383,0.0101678911869967,383,-0.0106809708553881,383,0.0192888591074371
382,0.0121873376356455,382,-0.0131055898191322,382,0.0101713625924224,382,-0.0105252581936486,382,0.0194211562970646
381,0.0121352667975568,381,-0.0131451213640926,381,0.0101318273111148,381,-0.0105807896520375,381,0.0195000178793388
380,0.0120216962973628,380,-0.0132238221257001,380,0.0102144792303676,380,-0.0105741707153565,380,0.0196488191118628
379,0.0121749848883451,379,-0.0132805662188842,379,0.0103494749713058,379,-0.0105668948212392,379,0.0198747586569445
378,0.0121250716536917,378,-0.0134792627488345,378,0.0103612456836328,378,-0.0106679885131224,378,0.0200457814685231
377,0.0120158149687653,377,-0.0132903073794986,377,0.0102005393942255,377,-0.0105849832772722,377,0.0199188766383568
376,0.011824941237945,376,-0.0133533183724705,376,0.0100660403132294,376,-0.0105613367644431,376,0.0198626188685114
375,0.0117443492834113,375,-0.0133893635786607,375,0.00999933616713778,375,-0.0105496646136332,375,0.0199593130243168
374,0.0118166951696494,374,-0.0132901567446575,374,0.0100571122780569,374,-0.0104517274579911,374,0.0201143450203599
373,0.0118248880370026,373,-0.0131930868312144,373,0.0100732994444668,373,-0.0103564980255736,373,0.0201921665149418
372,0.0117624346251681,372,-0.0131985108647706,372,0.0100899641134899,372,-0.0102825847852928,372,0.02028136655607
371,0.0117377536403058,371,-0.0130641958825745,371,0.0100143026475827,371,-0.010259933066262,371,0.0203463050776188
370,0.0116032828722256,370,-0.0132151843215124,370,0.00999501849961319,370,-0.0103868786848877,370,0.0204647872892059
369,0.0116453187950437,369,-0.0132330121589696,369,0.0100027002691327,369,-0.0103498251169064,369,0.020570056560306
368,0.011781744218411,368,-0.0131078502967164,368,0.0102165463924532,368,-0.0103036174665589,368,0.0209083718775399
367,0.0116592253122113,367,-0.0132053410328869,367,0.0101620614082518,367,-0.0103333951699307,367,0.0208809927484318
366,0.0117816112292956,366,-0.0129602917788274,366,0.0102486416712418,366,-0.010197078471097,366,0.0212500499206367
365,0.0116847261822661,365,-0.0129839587778489,365,0.01027337070032,365,-0.0102166993857036,365,0.021305019587006
364,0.0118180517701248,364,-0.0128043889979831,364,0.0104294637736616,364,-0.0101496407421149,364,0.0215629425060811
363,0.0118584591271122,363,-0.012779103550157,363,0.0105865678590259,363,-0.0102182164298108,363,0.0217513415147117
362,0.0115932331403926,362,-0.0126722650801557,362,0.010297199896479,362,-0.0102584667312345,362,0.0215894940910695
361,0.011475046602101,361,-0.0125634387925334,361,0.0101872625138535,361,-0.0101991012867819,361,0.021591724933403
360,0.0114374654507906,360,-0.0124853728295081,360,0.010211855538813,360,-0.0102450672335509,360,0.0217626088633252
359,0.0117179141241379,359,-0.0122012089324296,359,0.01051591172435,359,-0.0101290558084444,359,0.0221987764407378
358,0.0117335250347212,358,-0.0118085989635227,358,0.010464836407209,358,-0.00997415703149453,358,0.0222088021711708
357,0.0114461827124717,357,-0.0117078208566547,357,0.0102982071660526,357,-0.010098960599113,357,0.022126968463499
356,0.0116155661936223,356,-0.0114358552317152,356,0.0104143238942019,356,-0.00997071645762221,356,0.0223890323526834
355,0.0115001113699797,355,-0.0111581183060304,355,0.0103709222964387,355,-0.00993479119051765,355,0.0224997853900348
354,0.0114871402384508,354,-0.0108800521772224,354,0.010343139066795,354,-0.009949414650832,354,0.0226219108815193
353,0.0115160334319583,353,-0.0105302103318071,353,0.0103227534572652,353,-0.00971548143076561,353,0.022815817123694
352,0.0114934396945159,352,-0.0101406381147579,352,0.0103009904230732,352,-0.0097645358546119,352,0.0228595254924289
351,0.0115422702232024,351,-0.00985741527643068,351,0.0104453731473966,351,-0.00960682311345116,351,0.0230842756032617
350,0.011408683783633,350,-0.00968596510856698,350,0.0103038267128633,350,-0.0096178623378597,350,0.0230773962788197
349,0.0113527204619425,349,-0.00943076526845899,349,0.0102544726123259,349,-0.00956934842380375,349,0.0232231957559045
348,0.0113605325723465,348,-0.00931945137885136,348,0.0104148541787838,348,-0.00954113899045641,348,0.0234781074685726
347,0.0113990637440357,347,-0.00933759186476774,347,0.0105276073851521,347,-0.00957780583224829,347,0.0237603729850641
346,0.0113014669373237,346,-0.00942458472639247,346,0.0104674351100836,346,-0.00960099955632492,346,0.0238630256862893
345,0.0112961798520487,345,-0.00945057280653073,345,0.0104964726947003,345,-0.00947980120618909,345,0.0240751621412915
344,0.0110431126846819,344,-0.00956752524830863,344,0.010259641011918,344,-0.00948648749601741,344,0.0240089797653466
343,0.0112070795651223,343,-0.00959198554870676,343,0.0103263851538015,343,-0.00926066694488259,343,0.0243114928075824
342,0.0112075576931901,342,-0.00971968341986049,342,0.0103176903397849,342,-0.00915133714505854,342,0.0243498214209637
341,0.0111399078035212,341,-0.0100948634429453,341,0.0103796977125542,341,-0.00927394481439889,341,0.0246630107749564
340,0.0110905913805803,340,-0.0101049292265834,340,0.0103588862134798,340,-0.00908538129106239,340,0.0247948451602583
339,0.0110601863607622,339,-0.010444348428792,339,0.0102678045581132,339,-0.00912781522252493,339,0.0249600851356152
338,0.0110029935153238,338,-0.0105731096550564,338,0.0102973324318157,338,-0.00906063892529149,338,0.025151829138083
337,0.0110320934834257,337,-0.0107785533171564,337,0.0102669033798945,337,-0.00906515147004906,337,0.0254612880933636
336,0.0108939125409854,336,-0.0110563815963316,336,0.010190363066357,336,-0.0090564812582831,336,0.0256978801105304
335,0.0110829168996329,335,-0.011126782305867,335,0.0104268652979869,335,-0.00904162487900378,335,0.0261094569125987
334,0.011005993695606,334,-0.0112664396838141,334,0.0104233388201529,334,-0.00894846937510487,334,0.0263503356201245
333,0.010958789721496,333,-0.0112183113961947,333,0.0104187517903294,333,-0.00885473588792625,333,0.0266239609788507
332,0.0109315528672122,332,-0.0112439401209838,332,0.0103197314847566,332,-0.00874926152750208,332,0.0267641007943552
331,0.0110257210608969,331,-0.0112306214448912,331,0.0103770199988084,331,-0.00869253119645078,331,0.0271454130367632
330,0.0109982941595479,330,-0.0113965208049381,330,0.010462821097318,330,-0.00864726339859069,330,0.0275788031973637
329,0.0108599381789589,329,-0.0115011021806735,329,0.0103092607777532,329,-0.00871780197297219,329,0.0276863354684875
328,0.0109096000378676,328,-0.0116371110555539,328,0.0104337857625354,328,-0.00860671121887615,328,0.0281542092902324
327,0.0109378973619488,327,-0.0117339750223538,327,0.0104203956914011,327,-0.00846467260438762,327,0.0285428539181307
326,0.0108098839224846,326,-0.0120274084864773,326,0.0103468769741755,326,-0.00865853004043537,326,0.0287836204912875
325,0.0110195080389557,325,-0.0119811271752891,325,0.0105179007600817,325,-0.00846030613547113,325,0.0292663020831963
324,0.0108288592739498,324,-0.0121078224948972,324,0.0103071931743181,324,-0.00850437499338005,324,0.0294516187167942
323,0.0106851980065702,323,-0.0121606852088607,323,0.0101495541469921,323,-0.00837352615323705,323,0.0296765643408064
322,0.0108842508113446,322,-0.0120774109324856,322,0.0102414591196096,322,-0.00809595754202269,322,0.0301686475279415
321,0.0109714795994901,321,-0.0122078031185461,321,0.0103813944902059,321,-0.00813655743910683,321,0.0307404957193624
320,0.0108145016239934,320,-0.0123682475674777,320,0.0102692093396542,320,-0.00825838515927052,320,0.0311334372237476
319,0.0106484014079064,319,-0.0123856070421593,319,0.0101140747028845,319,-0.00821388491632645,319,0.0313925071396087
318,0.0107102702940023,318,-0.0122445978457466,318,0.0101101268334185,318,-0.00806145226803204,318,0.0318898825340056
317,0.0105864617601161,317,-0.0125935145876911,317,0.0100052697189176,317,-0.00819386848015039,317,0.0323506521022842
316,0.0107932712185188,316,-0.0124745571725076,316,0.0102197796657021,316,-0.00809799016779812,316,0.0330735487815442
315,0.0104168957804689,315,-0.0126315841374937,315,0.00983656595863217,315,-0.00827194768284086,315,0.0332098896182203
314,0.0104609914161743,314,-0.0123675431103765,314,0.00981588638047338,314,-0.00806018177115261,314,0.0335917599561319
313,0.0102444540436739,313,-0.0124039217936518,313,0.00952491449004534,313,-0.00808828429397785,313,0.033933631351527
312,0.010142744200683,312,-0.0124364738548836,312,0.00944001274916546,312,-0.0081548490185894,312,0.0343212375203338
311,0.0100484493451906,311,-0.0123731787351916,311,0.00928287323417539,311,-0.00818223413772196,311,0.034725397193278
310,0.00997231834027336,310,-0.0124292290940722,310,0.00919362976521986,310,-0.00826178852896146,310,0.0352551577968015
309,0.00960361356778784,309,-0.0127012774665473,309,0.00894675228460112,309,-0.00848264574673128,309,0.0355762016135798
308,0.00967258621998423,308,-0.0123688010686842,308,0.00895095384288798,308,-0.00842329093202922,308,0.0361546004497081
307,0.00976190170003647,307,-0.0120180418291947,307,0.00900359567841532,307,-0.00828500184669434,307,0.0368433686210004
306,0.00950284743659656,306,-0.0120321924539249,306,0.00871248064826649,306,-0.00836885406487094,306,0.0372238234204234
305,0.00958752328921918,305,-0.0116910894274722,305,0.00874224632047424,305,-0.00822394358926256,305,0.0378159161596129
304,0.00972645390955654,304,-0.0112394501583936,304,0.00892331414868565,304,-0.00804859466809158,304,0.0385288807154082
303,0.00970506485759751,303,-0.0110117128633169,303,0.008879057307584,303,-0.00802414893219136,303,0.0392670738495609
302,0.00970307954110241,302,-0.0107776442649666,302,0.0088751470692145,302,-0.00807430948732528,302,0.0397132193195581
301,0.00975652742772849,301,-0.0102416793705461,301,0.00880656509871435,301,-0.0078396688569545,301,0.0402946300928535
300,0.00976081625051614,300,-0.00994354508577805,300,0.00882973275799894,300,-0.00777447970046925,300,0.0409944387506624
299,0.00966983345608278,299,-0.00958124952023885,299,0.00872478812338429,299,-0.00766279129001562,299,0.0414860788302347
298,0.0095758529174002,298,-0.00932117425086057,298,0.00861334688419837,298,-0.00758134643145102,298,0.0419624231678643
297,0.00953023297636549,297,-0.00892194403915088,297,0.008473452032422,297,-0.00745067717585805,297,0.0425120819799088
296,0.00962804123212782,296,-0.00867700264052248,296,0.00854826469630434,296,-0.00736226995159541,296,0.0432291155194997
295,0.00952401485203359,295,-0.00863219000173064,295,0.00851119993092788,295,-0.0073842080228209,295,0.0439245932686247
294,0.00957640864228037,294,-0.00833655434004846,294,0.00846152121123466,294,-0.00718188783386333,294,0.0445703847797412
293,0.00972785694111709,293,-0.0082867796207529,293,0.0085930951135536,293,-0.00707356146762821,293,0.0454561214096169
292,0.00959453624852897,292,-0.00810881373984847,292,0.00839815081669065,292,-0.006918027439948,292,0.0461038218040372
291,0.009546030058565,291,-0.00791511741052336,291,0.00832112112745768,291,-0.00671870148257569,291,0.0467171477276835
290,0.00944310797140706,290,-0.0077726489744776,290,0.00816391107431063,290,-0.00653014698754047,290,0.0473727954644932
289,0.00940337440126342,289,-0.00784993957900222,289,0.00817227272016105,289,-0.0065108688221015,289,0.04832592333789
288,0.00959300132699957,288,-0.00765836588437511,288,0.00832273072083436,288,-0.00625348965211116,288,0.0495314595095763
287,0.00946948439263356,287,-0.00764117250119889,287,0.00816573110339102,287,-0.00619377833671983,287,0.0504045899503627
286,0.00950829794744555,286,-0.00732434654211522,286,0.00819472071077611,286,-0.00588345353855583,286,0.0514785426563821
285,0.00935219170416534,285,-0.00737988157677657,285,0.00806287186060819,285,-0.00580892827656014,285,0.0525940750397424
284,0.00943509218485778,284,-0.00738710926249703,284,0.0081067818649336,284,-0.00567154148653938,284,0.0540049901625874
283,0.00976838797932229,283,-0.00715235158865863,283,0.00835996412772786,283,-0.00537863840902031,283,0.0554281210224604
282,0.00963354624760183,282,-0.00708329004534275,282,0.00819429864619576,282,-0.00523103856545101,282,0.0563892972304023
281,0.00966948936182193,281,-0.00700530249035079,281,0.0083465059014349,281,-0.00498774224758209,281,0.0577242945983368
280,0.00978366421164646,280,-0.00690630791307099,280,0.0083963562046321,280,-0.00475869917289499,280,0.0589443219818208
279,0.00955949904644866,279,-0.00709464826608888,279,0.00819358641314654,279,-0.0047580846794349,279,0.0599869014340645
278,0.0100385944757019,278,-0.00659786878518404,278,0.00856941203737488,278,-0.00417776852167958,278,0.0613667101556823
277,0.00973431623922253,277,-0.00678241826898032,277,0.00836540031385529,277,-0.00416900018661706,277,0.0623601100235931
276,0.00992255166475732,276,-0.0065059726438176,276,0.00838577342256344,276,-0.00374914362685352,276,0.0634298640466315
275,0.0099514733813552,275,-0.00641058815945706,275,0.00844684569489218,275,-0.00345884417673639,275,0.0646086716998645
274,0.0101835789802479,274,-0.00636375538140628,274,0.00868139658267333,274,-0.00312851712157665,274,0.0659091658632284
273,0.010371850202146,273,-0.00633360219496385,273,0.00884251908782374,273,-0.00282525212521619,273,0.0669137474490472
272,0.0103108512486324,272,-0.00652071201349251,272,0.00877874969012131,272,-0.00270806457618839,272,0.0677094684853214
271,0.0102068202155835,271,-0.00658404990846122,271,0.00868327159919206,271,-0.00255502497397234,271,0.0683556771252879
270,0.010611528347882,270,-0.00651658096033502,270,0.00900790350060863,270,-0.00217528066938861,270,0.0693158040872001
269,0.0107444717585632,269,-0.00671192146623587,269,0.00902415732493506,269,-0.00199845112770276,269,0.0699815307460501
268,0.0112101874069725,268,-0.00660582336352394,268,0.00941972239410327,268,-0.00163570469411572,268,0.0707244026547623
267,0.0112480411120209,267,-0.00670947451705188,267,0.00936822036522817,267,-0.0015018925337172,267,0.0709994894834567
266,0.0114542091264252,266,-0.00666241904169263,266,0.00944858418787479,266,-0.00124364336174832,266,0.0712968047224496
265,0.0120866889506566,265,-0.00649378296018654,265,0.0099727686236148,265,-0.00088186733667673,265,0.0718817525882718
264,0.0124522874698274,264,-0.00639400850505198,264,0.0102262197816828,264,-0.000707456476749019,264,0.0721674768236856
263,0.0128186472607685,263,-0.00617887474530018,263,0.0103533454856507,263,-0.000455354241395669,263,0.0721550062675981
262,0.0133761216618385,262,-0.00576908087476338,262,0.0106771062015998,262,-0.00018007722852824,262,0.072233747942899
261,0.0136272668741702,261,-0.00534243352733117,261,0.010637763606693,261,3.46109187609649E-05,261,0.0718267437623039
260,0.0135760113087279,260,-0.00509945546158202,260,0.0104390623594094,260,0.000162257670411912,260,0.0713097082376931
259,0.0142376969363566,259,-0.00452277219555033,259,0.0109196605075259,259,0.000382789144263587,259,0.0712683756351046
258,0.0151157261344802,258,-0.00364067628507161,258,0.0115706088015594,258,0.00065883142246693,258,0.0713826523378644
257,0.0158729216294974,257,-0.00258245668386227,257,0.0119897890498677,257,0.000873493829891288,257,0.0712167077883484
256,0.0167440698774814,256,-0.00117255144012823,256,0.012536208192739,256,0.00126795774899447,256,0.0710846075749077
255,0.0173950837574275,255,0.00011813373895102,255,0.0129331464340775,255,0.00136509116159192,255,0.0708833326474158
254,0.0186892907043042,254,0.00244678742653023,254,0.0137196436624416,254,0.00200521918204672,254,0.0706625039485093
253,0.0192661820889275,253,0.00426511246286269,253,0.0139282181808624,253,0.00237536088928386,253,0.0701529669911078
252,0.020011219131535,252,0.00607488564521283,252,0.0143201441474694,252,0.00271380387631232,252,0.0698969934266408
251,0.0215604669799647,251,0.00848226838078747,251,0.0153378977440674,251,0.00329235558308101,251,0.0699391383929872
250,0.0233209962010329,250,0.0108727578799024,250,0.0164333920087024,250,0.00391375681007731,250,0.0700574763186203
249,0.0250193105167191,249,0.0130858234008089,249,0.0173808576426409,249,0.00475098756521319,249,0.0700355459368953
248,0.0263905225713923,248,0.0145343874540564,248,0.01805384809941,248,0.00528281388748888,248,0.0699592696831594
247,0.0278485394207484,247,0.0160552953471192,247,0.0187553430025757,247,0.00609614915500932,247,0.0698968109897896
246,0.030428641676431,246,0.0176575152063499,246,0.0204395525085723,246,0.00716057526950823,246,0.0706737742174197
245,0.0347354919849489,245,0.0197258529156173,245,0.0233601389365348,245,0.00868448640294812,245,0.0724939782247112
244,0.0384366169616174,244,0.0215664517925578,244,0.0256479261395384,244,0.0102321034279087,244,0.0739514249035925
243,0.0417477242794043,243,0.0235266100810319,243,0.0276447318322569,243,0.0118179985700263,243,0.0752173523328727
242,0.0449953117753637,242,0.0251602500442951,242,0.0296094120523718,242,0.0131839554863611,242,0.0766980663967522
241,0.049991940195428,241,0.0277776401759926,241,0.0329110852858353,241,0.0152695478299553,241,0.0793462642021873
240,0.0561693221260156,240,0.0310190427772037,240,0.0370204179306495,240,0.0178579021316024,240,0.0829782555829802
239,0.062722263917458,239,0.0346745903043787,239,0.0413634298222121,239,0.0205896531936857,239,0.0869302524531972
238,0.0693373033825904,238,0.0383721966914954,238,0.0456009776873496,238,0.0233611496470493,238,0.0911518333334768
237,0.0761330339432137,237,0.0422730007580494,237,0.0499776507848961,237,0.0263410114586256,237,0.0958300611439168
236,0.0834505882162794,236,0.0467464645688677,236,0.0548075466088783,236,0.0297303934409174,236,0.101327837940183
235,0.0907335116558586,235,0.0511681869764598,235,0.0595306690372766,235,0.0330839125345862,235,0.107478902493886
234,0.0977567525273697,234,0.0555193599030986,234,0.0641406593461466,234,0.0365321713057481,234,0.114388617229671
233,0.106176424400824,233,0.060422074103098,233,0.0699141124255049,233,0.0405900614338929,233,0.124139251371982
232,0.113511067350478,232,0.0649583663248249,232,0.0749370592916759,232,0.0444489263997529,232,0.133762419767056
231,0.11978322214301,231,0.0690306443619274,231,0.0794078591549971,231,0.0481169342111031,231,0.144117757601202
230,0.125101952418502,230,0.0723848826953313,230,0.0835207686547773,230,0.0515226099909354,230,0.155304902938407
229,0.12847788965581,229,0.0751164641565112,229,0.0861528481730968,229,0.0542732046207799,229,0.163842823362182
228,0.13211780386519,228,0.0776203761651903,228,0.0895362457910245,228,0.0575167040486097,228,0.176195553200981
227,0.135392427054727,227,0.0796405506016949,227,0.0932571116174984,227,0.0609951984698271,227,0.192029107798834
226,0.136959732109689,226,0.0806797473574758,226,0.0961155490552227,226,0.0640041844500586,226,0.20805231139689
225,0.137071909344592,225,0.0808136142353252,225,0.0983495787443374,225,0.0668626554406052,225,0.225700031161068
224,0.135611721795586,224,0.0801153043411921,224,0.100005454335162,224,0.0696324493062807,224,0.244843375054624
223,0.132783056323448,223,0.0784831451398981,223,0.100907963707807,223,0.072135842655096,223,0.26464611080822
222,0.128940344874547,222,0.0762232675746372,222,0.101542031764621,222,0.0744555464038815,222,0.285369002496803
221,0.123903290686817,221,0.0727848194243208,221,0.101741705436805,221,0.0763790071029833,221,0.307517526775431
220,0.118319587952826,220,0.0692730819514518,220,0.101908541282521,220,0.0786719949818775,220,0.331834150679055
219,0.111789965329603,219,0.0651327328330892,219,0.101678234323685,219,0.0807288748885939,219,0.356977569563146
218,0.105184049572267,218,0.0610111062223014,218,0.101631651120639,218,0.0832738853916589,218,0.384721886473426
217,0.0983186408019996,217,0.0567850318827268,217,0.101415549489229,217,0.0856846321201364,217,0.412653068772479
216,0.091898357212155,216,0.0529098669150509,216,0.101879639860646,216,0.0885385054955282,216,0.441163319399485
215,0.0857714163609152,215,0.0491816720084746,215,0.10291605533828,215,0.0916854452300383,215,0.471128641439273
214,0.0804700203504192,214,0.0459696174677057,214,0.104502133510249,214,0.0952126842453066,214,0.5005531872695
213,0.0762887102540627,213,0.0438699782112958,213,0.106986802972147,213,0.0994357177706577,213,0.529925052622339
212,0.0727711986299879,212,0.042125028713009,212,0.110169056647522,212,0.104036911285836,212,0.559442313513751
211,0.0703656833605122,211,0.0414106969884874,211,0.11455081325745,211,0.109516314092235,211,0.590502373245314
210,0.0691696492390966,210,0.0416746904238231,210,0.120171537031744,210,0.115830050785077,210,0.620606104116983
209,0.0695475545592839,209,0.042953344949467,209,0.126696356146695,209,0.122191245883937,209,0.648289795143998
208,0.0713394213358023,208,0.0459213623957365,208,0.135350108596831,208,0.130426609383082,208,0.678248983339057
207,0.074041789607,207,0.0497600567660943,207,0.144716801869855,207,0.139081914048731,207,0.706290487202191
206,0.0785123916382792,206,0.0549050881487469,206,0.155129231680368,206,0.148300988023545,206,0.731637850150872
205,0.0843390487846125,205,0.0613358529889873,205,0.167377694148456,205,0.158846282354677,205,0.759220715253833
204,0.0917290552249228,204,0.068538809129979,204,0.18068861251092,204,0.169972667410063,204,0.785494525583507
203,0.100036317132,203,0.0758299861928489,203,0.194357664002458,203,0.181361862623311,203,0.810753021518469
202,0.109289262686173,202,0.083601221874813,202,0.208793496146062,202,0.193489872470559,202,0.836819050907325
201,0.120136274081664,201,0.0918541545206799,201,0.224272282215799,201,0.206906529701709,201,0.866140847271391
200,0.132020545533629,200,0.100451564883151,200,0.241296868303726,200,0.221821337241047,200,0.899223936360705
